5.933333446989185953e-03
-4.691343979788437785e-02
-8.876456771332603968e-02
-1.035657860252384710e-01
-9.996554052549075364e-02
-9.771091188191413646e-02
-8.961548579306108375e-02
-5.314210867972657404e-02
1.206563169287442477e-02
6.270487950966585622e-02
5.531556762189503845e-02
2.248697980288355547e-02
2.350995535142080817e-02
3.742723792151236156e-02
1.021943247017584669e-02
-4.981629948517843354e-02
-9.297632072395309311e-02
-7.964634552971963655e-02
-7.919704356448824950e-03
5.168736038553867207e-02
9.116092847135638666e-03
-9.300565844586448916e-02
-1.114663835855981278e-01
-3.019064586174994083e-02
3.645784996041216697e-02
4.267298843096067190e-02
3.508251165151007878e-02
4.723262734485265263e-02
6.379667643019308609e-02
5.694151220111230705e-02
4.004548667514706145e-02
4.986299844882922938e-02
7.252538802537633611e-02
6.835206055160142347e-02
5.186211666424078714e-02
3.976690044661057577e-02
-4.970594576280384577e-03
-6.731850072295259002e-02
-6.337957098593693939e-02
5.059964996024540751e-03
4.722582106854424783e-02
4.748009044580613763e-02
6.106143050378805281e-02
3.258704410208254632e-02
-1.227625840413463787e-01
-2.574169908612096158e-01
-1.844481330154795762e-01
-6.697939438087698039e-03
7.487751446326054716e-02
4.699909079042867421e-02
2.519602665140274755e-02
5.807572654759299291e-02
7.030786523668011712e-02
2.178123737753726724e-02
-2.100211429462903526e-02
-2.799240199996636327e-02
-3.041421004361125752e-02
-2.470949748440768451e-02
2.369451796202060728e-03
1.567236197487511737e-02
-2.714323039311178701e-02
-9.385738147775758711e-02
-7.670079168670969338e-02
4.816765496530247409e-02
1.241488607223191348e-01
4.909446850348448549e-02
-3.376265094361097924e-02
4.687990327545462493e-03
6.258195352516990329e-02
4.425726361117855723e-02
2.079388588551409414e-02
3.077394485038509667e-02
2.652604614425008861e-02
2.719168130778357173e-02
3.687733001350909645e-02
-3.605521345523888394e-02
-1.529257906779656062e-01
-1.521672782719276362e-01
-5.387331438550045648e-02
1.764573877190207807e-03
6.666522317422079319e-03
2.568845710438453361e-02
5.254048123222804234e-02
4.545472590904351545e-02
3.385373190364911189e-02
6.930198492738461058e-02
8.519896663986860352e-02
1.330754083674191672e-02
-5.012084646545891808e-02
-1.760593192882085184e-02
4.110166788141764865e-02
4.253007301001249935e-02
-3.779054038470364921e-03
-2.579845148438131633e-02
1.920159059031896487e-02
3.627117289070871942e-02
-6.474763883904134654e-02
-1.507856905563781935e-01
-8.559564807964913091e-02
9.650249829920506950e-03
5.003352006710818506e-03
-1.461004255356631969e-02
2.157057899806083187e-02
3.133432363004009374e-02
-2.199686356921009417e-02
-8.445652210557191841e-02
-1.356336499737061940e-01
-1.348658832519183115e-01
-3.402708938770399039e-02
8.300613672009762856e-02
1.292242776051861219e-01
1.550300307925653875e-01
1.760787013797781575e-01
1.219355882414617509e-01
3.307690549373579897e-02
3.611884151451817682e-02
1.066585424320590642e-01
1.058032684738662438e-01
3.265781783164347502e-02
-1.446204755044604509e-02
-4.549315597641363784e-02
-1.057789131518127312e-01
-1.512418158313150462e-01
-1.573849785668640922e-01
-1.549800327358050178e-01
-1.173608585004651955e-01
-1.982076520742546630e-02
6.027608500211906195e-02
6.613153875767777135e-02
4.538559450945922613e-02
3.989319146254011184e-02
3.194590214284402652e-02
6.331984622799560758e-03
-2.888276739098472046e-02
-6.642335534918882012e-02
-7.995993805585667469e-02
-3.118476823507872198e-02
5.057625598614954449e-02
8.588425599444787784e-02
4.802315022793907096e-02
-2.223090890839948125e-02
-6.146396388314426945e-02
-4.296698922358704875e-02
-9.300201998298895933e-03
-5.008033860936881090e-03
-1.338505162891344066e-02
1.047484810222715224e-02
7.076893258919787766e-02
1.079588374570264742e-01
8.443783720981989926e-02
5.711413419158061638e-02
6.270660817383372221e-02
4.211767003054427833e-02
-1.573291757666762242e-02
-4.702425605743117132e-02
-4.563074792549705327e-02
-2.939911686724805406e-02
4.519380178099193304e-03
1.382053185684080018e-02
-8.838538138861819562e-03
4.049085887932745570e-03
2.485246742594101818e-02
-3.401870224811484600e-02
-1.151774212171475104e-01
-1.095566945874205805e-01
-5.255255793358838690e-02
-2.435021915664279876e-02
-3.527301811471027573e-03
3.578328686411153675e-02
4.700442747836232338e-02
1.989094951534971234e-02
9.003060034800319106e-03
3.241198143632419842e-02
5.543907770903749865e-02
4.274794852427678260e-02
-8.833350284003600381e-03
-2.853231592691259783e-02
3.946091873882819068e-02
7.959877159813452674e-02
-9.289767390122393581e-03
-1.048265946888784217e-01
-9.930971477532705982e-02
-3.931568713783088753e-02
2.451816136675842583e-02
4.761622705105888337e-02
1.309912401330476546e-02
-6.907844666832864758e-04
4.930289534791394701e-02
9.741911356653362719e-02
8.658441054556328953e-02
2.149349975550067515e-02
-6.734614229626680049e-02
-1.330774484643917899e-01
-1.262340940548539736e-01
-4.197096944933974283e-02
6.561240490063499631e-02
1.214604518241539921e-01
8.218704191734892139e-02
-1.585385892982573916e-02
-8.413550340850345366e-02
-8.247954095046583500e-02
-4.770121349860872995e-02
-2.541938896807987430e-02
-2.102921974942283112e-02
-2.581267214786134648e-02
-4.296938989060380965e-02
-4.935385086833871809e-02
8.643478490074558204e-04
9.046643414630654856e-02
1.416463506959489138e-01
1.285855577888387336e-01
9.742304208635374496e-02
6.234672424968732557e-02
-3.977034352532819728e-03
-5.789623623300326621e-02
-2.754644043562455569e-02
2.076916607188759867e-02
-1.769990488733804573e-02
-7.420240413916258382e-02
-5.342476756186449738e-02
-1.705377375044404148e-02
-1.551180401066802432e-02
-1.770160985418092053e-02
-3.405364268151348656e-02
-5.197720204848284287e-02
-2.677436323266607632e-02
-2.398649672866817045e-03
-4.998835627280422134e-03
1.969478306710628970e-02
5.306681594434731891e-02
3.408631444687566792e-02
-1.830788464408640223e-02
-6.273479394553911626e-02
-8.053942204819508621e-02
-5.738763113291292517e-02
-2.087566063713158088e-02
-1.417464375966849197e-02
-7.949246656345415607e-03
4.675444166843746585e-02
1.122967757583248904e-01
1.241565897740152108e-01
1.086299349295917760e-01
1.296900200003356651e-01
1.687831284692920542e-01
1.726462333793760129e-01
1.444868459675706651e-01
1.049441264061978935e-01
4.685673535617965180e-02
-4.239548316533091332e-02
-1.458863992165262413e-01
-2.208302881880441215e-01
-2.619780541213130864e-01
-3.049316102209007617e-01
-3.226061034518890591e-01
-2.256288521551404469e-01
-2.902185852069780192e-02
1.110681169389658579e-01
9.476500767081025289e-02
-6.378334625502170285e-03
-5.816742085012589769e-02
-1.157814988010938753e-02
6.739805430593426294e-02
1.081911469930872116e-01
1.179666503525561849e-01
1.166302789053364208e-01
9.950779686088598308e-02
8.640699823201677954e-02
9.408920736005615959e-02
8.933964352997658676e-02
5.057710886521420146e-02
1.231986113497916813e-04
-4.601041937445526919e-02
-7.201804316248533455e-02
-5.970722132333441262e-02
-3.310403473263815594e-02
-1.827732222901907316e-02
-6.764070381131342263e-03
-1.116280723593069020e-03
-3.548396749641621016e-03
1.416798109164244413e-03
8.284510226098015448e-03
5.299009096298839053e-03
-4.107659938081121079e-03
-1.570614598467100567e-02
-1.009469569396894556e-02
1.999605679716398923e-02
2.702063881791167549e-02
-5.464366974448550511e-03
-1.605413721352541567e-02
2.422708298682423392e-03
-1.504008187412230954e-02
-5.232332704532238754e-02
-3.330370484938700859e-02
2.808172090719237082e-02
5.457498932864014718e-02
2.514107997114198995e-02
-1.992462268283379939e-02
-4.394676863418459090e-02
-3.872841160786721915e-02
-1.410762346279684221e-02
3.286618479694817553e-03
-5.673183573135554686e-03
-1.290868767909979231e-02
1.354133115852437091e-02
4.742133938673612215e-02
5.280709652336360721e-02
4.212846742995313143e-02
4.480330312419296412e-02
5.890595304701851109e-02
3.991315233135885043e-02
-4.708972822686934012e-02
-1.506561195934250641e-01
-1.587174667985535859e-01
-3.143715150055369223e-02
1.209144817283631934e-01
1.571499606411149441e-01
7.415933320905904180e-02
-3.820087512353811249e-02
-1.208120569408102085e-01
-1.427837190100165188e-01
-1.020728194273210626e-01
-4.510111516073038451e-02
-1.319872354652862866e-02
-7.108991126093226406e-03
-1.957645467344787046e-03
2.211756099739835280e-02
4.917330119800088911e-02
6.399307853594507489e-02
8.935357057451320806e-02
1.214806731998779588e-01
1.071495967514007885e-01
4.482828797220841238e-02
8.502612415989905387e-04
-1.096299535509687867e-02
-3.967562063685976803e-02
-8.001957354971152292e-02
-7.221318061300953384e-02
-1.302098166363298629e-02
3.151352372123347040e-02
3.092388690941329926e-02
3.002848759847759688e-02
3.634066159027400655e-02
-1.325406322253390619e-02
-9.407091250053861708e-02
-9.490711295479492549e-02
-2.606622147105241982e-02
-1.256657690663603565e-03
-2.298415904007749741e-02
2.479786056124991256e-03
6.329507879570174522e-02
5.570020315056135873e-02
-1.333749553542555241e-02
-3.546308353986517281e-02
4.599933494653327473e-03
3.084787710182633133e-02
2.533994604289303842e-02
1.500002149785086870e-02
-1.234081881110780932e-02
-6.285241821671835871e-02
-9.761855920894400851e-02
-9.611624924224143607e-02
-7.690701579634171003e-02
-4.388827310858091357e-02
1.761844627094042229e-02
1.015295127936382685e-01
1.860242958387940959e-01
2.518214460287052647e-01
2.739632491762085120e-01
2.341941339493501528e-01
1.426710604120133563e-01
1.413166592424509871e-02
-1.284336845451175546e-01
-2.033182124286098402e-01
-1.417974364311175017e-01
-1.487904084527531118e-02
3.214581157300935160e-02
-6.227626668590917347e-02
-2.210768883305690713e-01
-3.094091539796552381e-01
-2.968416707887246986e-01
-2.493836266853292349e-01
-1.765101497269160047e-01
-6.503838721259914968e-02
4.459781384010355620e-02
1.310668366901411586e-01
1.990219342845404860e-01
2.265177823824161274e-01
2.030167757028592534e-01
1.587836332047115884e-01
1.184729280335170692e-01
8.606063907471578345e-02
6.591918508983173053e-02
3.129341485027586911e-02
-3.934205402877954949e-02
-7.232674479293010883e-02
-2.114832844964726483e-02
2.644489951570682534e-02
1.845676854630060038e-02
-4.564434588745636470e-03
-3.582931156553924995e-02
-6.668129747907515503e-02
-5.209415189125648354e-02
-1.625132244210123617e-02
-1.438496269413131953e-02
-2.259372432227476149e-02
-7.690047826645575110e-03
6.563362068671432792e-03
7.407781139064399320e-03
1.279601810580654510e-02
2.462210841086347884e-02
3.031230195032381253e-02
2.363883932729239634e-02
5.329256082634235489e-03
-1.367943688182452627e-02
-2.103382068122021734e-02
-2.087465613688116797e-02
-2.046907852986757509e-02
-1.996619891771790264e-02
-2.826891168947087349e-02
-4.021705932703547454e-02
-2.441533232545599341e-02
1.687818818826147815e-02
5.082724457470759460e-02
7.758580729923428287e-02
1.003462801612070160e-01
8.986165954786837218e-02
4.241224672106330001e-02
-4.067133759204205265e-03
-4.772972023845283712e-02
-1.303290030933808574e-01
-2.040134669449736038e-01
-1.258549758743497393e-01
7.985351303809595791e-02
1.770053771940389153e-01
7.577579581563623212e-02
-7.203141063870943661e-02
-1.524204960947749821e-01
-1.565155438316939152e-01
-8.877851655724570967e-02
4.594887366302344116e-03
5.438064697824197824e-02
5.534717551205140668e-02
4.903322166010267574e-02
5.122373860075349339e-02
5.798972841190040695e-02
7.543940203469896855e-02
8.954644894278969425e-02
7.265729790411319666e-02
3.755456484182480292e-02
1.717661173658412838e-02
1.104867020511859227e-02
3.830340881812305254e-04
-4.460904321012809995e-03
2.224579771230941402e-02
6.306541576472134147e-02
5.911940240358366100e-02
-1.728180640609516816e-02
-1.095934166263419218e-01
-1.343409849264356470e-01
-9.884136641323901240e-02
-9.039253779415774848e-02
-1.281301258986377589e-01
-1.162893673578111048e-01
-1.046383033777979754e-02
8.261697793458000483e-02
8.403003596853275692e-02
5.371080421594265353e-02
5.101589972176040488e-02
7.927830744582556322e-02
1.174358498115439520e-01
9.301491476286351257e-02
-1.610920094316534851e-02
-9.583790238233667880e-02
-8.973383986395271072e-02
-8.181653849983161475e-02
-8.515955137131953068e-02
-4.609864745709709583e-02
-1.729691702706316961e-02
-3.621143659904632606e-02
-2.821330086122822434e-02
1.595563330095908436e-02
3.406915668920335039e-02
3.469442437985616884e-02
5.162919839874010458e-02
7.928738436004845180e-02
1.127023011274684988e-01
1.493583671932185442e-01
1.629230201224845520e-01
1.348968155196738905e-01
8.042495947814409796e-02
1.557743495095407354e-02
-2.682072977891849369e-02
-2.676956224720708488e-03
2.769674256024337589e-02
-3.724286388616502436e-02
-1.470759747718927146e-01
-1.938516888913475733e-01
-1.800925474075127930e-01
-1.397770539307854887e-01
-8.034027026923486192e-02
-3.482463888703647703e-02
-2.812163092765654696e-02
-3.953586090384332563e-02
-5.226410335583821232e-02
-5.994762825129390515e-02
-2.756227961551566824e-02
4.943535849980174035e-02
9.077144867755011781e-02
5.365243925678878784e-02
2.858700289833628061e-03
-9.961999590997163562e-03
1.856808221895911437e-02
8.840610458792813597e-02
1.503888922270027462e-01
1.456069562294723396e-01
1.030959849376568427e-01
5.952323354653831639e-02
-1.104399653977231055e-02
-9.930216979343076122e-02
-1.405127175904790082e-01
-1.143758649092778135e-01
-5.263483251211325403e-02
1.767302271381180831e-02
6.132303408358504015e-02
3.499695374906052620e-02
-3.260910293994732922e-02
-4.857145802501736109e-02
1.982022202209648282e-03
3.964915042490570196e-02
3.446938727211942138e-02
2.502413298534952174e-02
2.863967557459802526e-02
3.767678704289448288e-02
3.967130091423669291e-02
1.423441019312421049e-02
-2.303011114019815758e-02
-2.802405283021514038e-02
-2.844401646116660742e-02
-6.574080552882813344e-02
-6.397319609016341446e-02
1.411272571822062838e-02
5.564031320220699794e-02
3.374931434448429080e-02
4.688003325798665438e-02
8.097772033687085369e-02
5.533049156602751900e-02
-3.789114996763291374e-03
-5.136447957197350783e-02
-9.778092274700764253e-02
-1.097327330394009953e-01
-2.256979580384822423e-02
1.106222405366072969e-01
1.261769608160798750e-01
-1.749430457198144356e-02
-1.535582401571340405e-01
-1.515309596939243830e-01
-6.016629518714104730e-02
3.033514857865293735e-02
6.522254883325011299e-02
3.090571639008852373e-02
-7.487334947300347543e-03
-1.972402470523703169e-03
7.722239814042493669e-03
1.182070993819293349e-02
2.274855398226136374e-02
3.309018031190743506e-03
-1.550914800562241957e-02
2.828095985575726501e-02
5.608257075558771565e-02
-2.028864715272265043e-03
-4.994643010777256170e-02
-1.236457033828524364e-02
4.946209271644556177e-02
7.260398872309968554e-02
5.510075340411300926e-02
3.258794767693306421e-02
4.938069858293996778e-02
1.783561168917504811e-02
-1.594308482252843051e-01
-2.519073797561932060e-01
-6.618672409174697346e-02
1.070364072084191293e-01
5.285977601540714499e-02
-1.700489276285976556e-02
8.265358330963758562e-03
1.305966760531505552e-02
-9.020499421025115344e-03
6.157408988231521420e-03
3.952127133591577801e-02
4.977208553121368478e-02
3.219771246439571272e-02
1.176689969277367256e-02
5.729785584360448311e-03
1.644852488028565943e-03
-5.828211897988057853e-03
-1.622235308187520639e-02
-2.298374383709199040e-02
2.048436327564299303e-03
3.147175022408947587e-02
1.606469490880904974e-02
8.785237265084767933e-03
3.964161728164549564e-02
3.976732342200221121e-02
2.692668518883517548e-02
5.084923138148204902e-02
3.563592641272263911e-02
-3.519491858984456073e-02
-7.405858285373315142e-02
-1.059009364525899111e-01
-1.633229944232878206e-01
-1.493773659203876669e-01
-5.320255101256566449e-02
5.856138243886156378e-03
-8.167203204246346882e-03
-4.049946970747431152e-02
-5.454883716151361778e-02
-5.424670321492150449e-02
-6.074018687096708474e-02
-3.889434458381905990e-03
1.893198849434518383e-01
3.270648130842815360e-01
2.312838420767116543e-01
9.900888802402089961e-02
1.023322623308776380e-01
1.234354735514618245e-01
8.706264489909716631e-02
4.398682639364440150e-02
1.120745073890393878e-02
-1.816494356934254817e-02
-5.060752883385710721e-02
-9.167117736978211417e-02
-1.225893290512989064e-01
-1.182048486599915904e-01
-8.575731564383945460e-02
-8.937483418698279058e-02
-1.619040413243888199e-01
-2.397016949810717446e-01
-2.788357511577646553e-01
-2.375134742561604007e-01
-6.595285822920571306e-02
1.126752641247336928e-01
1.591746681135789432e-01
1.411747198203448517e-01
1.292850186208824859e-01
1.029995380571159802e-01
8.544504555762730269e-02
1.022555817945383222e-01
1.089156935417127242e-01
7.136458226791576875e-02
2.227852683314043847e-02
-3.619573896427769749e-03
-2.037550316148041205e-02
-3.787067765952899234e-02
-3.053956826032917793e-02
-4.063502799074528854e-03
-8.086796419824607632e-03
-4.155362268704924228e-02
-4.119938233347308215e-02
7.349200950092657503e-03
6.487137955538713197e-02
1.147588691088575752e-01
1.296096655478610749e-01
1.021947713207606578e-01
9.626626213218691941e-02
6.743636518135084912e-02
-9.895701935256909221e-02
-2.770289781816376307e-01
-2.660030075541968131e-01
-1.188601723187596437e-01
1.858794143247468125e-02
7.852637508812804201e-02
3.832150105098687531e-02
-4.374794999428855552e-02
-7.432503431919315617e-02
-4.110015812614332270e-02
2.788812513679340271e-03
2.094733960889427066e-02
3.253392139239992542e-02
6.523146207217089820e-02
9.254493686264556040e-02
7.555526170111742656e-02
3.027812002561550489e-02
-3.802261362951036769e-03
-1.999734070727842566e-02
-2.445150559169218321e-02
-7.107864725314849176e-03
1.762656968605586308e-02
1.113131256661158142e-02
-1.054791627356865824e-02
-5.397430669518338275e-03
4.582976296542408574e-03
-1.237708772913191473e-02
-1.797371672700679573e-02
2.709193991550475078e-02
6.307167932313018088e-02
1.105946455354597791e-02
-6.976556115062414187e-02
-7.091796430431161757e-02
-1.711118378218834737e-02
1.106448786398267492e-02
6.820493448100144185e-04
-2.910166248666216926e-02
-5.046708556220141223e-02
-4.534834506802300214e-02
-3.365843464357400755e-02
-1.316003076175504410e-02
3.417661629185669153e-02
6.022310240687486077e-02
2.976615567643745713e-02
5.949726712192677028e-04
9.266659917296901638e-03
2.786220989233259560e-02
6.113671488632092116e-02
1.143788031842055269e-01
1.028997038893258859e-01
-1.956353089347299609e-02
-1.222214787757304466e-01
-1.028825763562961348e-01
-5.662859569009921074e-02
-4.053608711802022396e-02
1.498848342520201285e-02
9.246462123089035923e-02
1.314283116939530260e-01
1.504286717959738007e-01
1.180712294394827416e-01
-2.904703161385441268e-02
-1.967510582596705970e-01
-2.071883556447337849e-01
-4.798982116189907249e-02
1.007483290360774025e-01
1.005115708074541814e-01
5.267576495459426467e-03
-7.242276904151076500e-02
-1.112470771439695305e-01
-1.304277778214943950e-01
-1.174358668537319045e-01
-6.262957646019888525e-02
-7.901393235057339523e-03
-7.034224124818470175e-03
-3.474611544770542931e-02
-2.553703517464360473e-02
9.639337078022561928e-03
2.716596914406587196e-02
3.741186825657154269e-02
5.986611054485300315e-02
7.231247828071281358e-02
5.923046773188175157e-02
1.028643038440294200e-01
2.660864986120380360e-01
3.723912944757787891e-01
2.596234355739369670e-01
9.387006710577996960e-02
3.308352215036502314e-02
-4.536797914545726007e-03
-5.292910680756405389e-02
-7.392392944425910106e-02
-1.222187938380921435e-01
-2.139965484460859546e-01
-2.710150271620820339e-01
-2.691027554146802614e-01
-2.348018224860057290e-01
-1.843883280356816146e-01
-1.515725565916588025e-01
-1.414789430627657885e-01
-9.933682755224428063e-02
-1.796109794497242201e-02
4.863878434026424474e-02
9.096463864860127035e-02
1.271332412550013058e-01
1.438709448733104246e-01
1.366916024393360907e-01
1.254148274806874130e-01
1.213089050858802698e-01
1.200086056123401690e-01
1.066464290679807608e-01
7.886962569292320369e-02
5.718297139297556786e-02
5.991492803826652808e-02
8.182321356211755270e-02
7.920923422541051306e-02
4.429155991272974713e-02
4.726563289533076972e-02
3.747726097031706116e-02
-1.124044127491612977e-01
-2.643775704501454271e-01
-2.302861695792745578e-01
-1.274621025187817613e-01
-6.225593392280300703e-02
3.211584107910389618e-02
9.778044770636684646e-02
3.593240681583204088e-02
-5.974687514200466287e-02
-7.953460496736079743e-02
-5.275132209862726934e-02
-2.807929420117906069e-02
-2.868292072423350020e-03
2.520819179062976437e-02
3.741993558885102489e-02
2.853145303674604893e-02
1.376562054597313053e-02
5.496388190130747572e-03
2.092726227291443614e-02
5.540665570026911957e-02
6.015344849023410850e-02
3.109093797321797747e-02
1.027848196311881984e-02
-1.353694378084062573e-02
-4.132913285817279431e-02
-2.285368442536469397e-02
1.881273568239385380e-02
2.156557808020403630e-02
9.636509127846850861e-03
2.668002594048713566e-02
5.241160597691999629e-02
4.558198904286814984e-02
9.592108865713026454e-04
-3.842389763113301937e-02
-3.075869273450898556e-02
4.145468833783845161e-03
1.624197168707688238e-02
-3.118102050969589426e-03
-3.157542903714578852e-02
-5.717497972543755802e-02
-7.177743552560500451e-02
-6.748673375296310173e-02
-4.605467042230416974e-02
-1.236128789682549960e-02
2.342825181823389447e-02
3.689917439005528654e-02
2.378438164169541236e-02
2.873399184819164232e-02
5.891128363146211355e-02
4.982811538172390864e-02
2.451582423956502610e-03
-1.659841978223167841e-02
-1.283383886059218798e-02
-1.518101733365268165e-02
1.741546848867201423e-03
4.017344705740468619e-02
8.465032138221612046e-02
1.451311598790332169e-01
1.330811796072665365e-01
-5.979867835356823813e-02
-2.706950361586752951e-01
-2.678189007155277745e-01
-1.182497006204732137e-01
1.546415133309351521e-02
1.048911969354973939e-01
1.345602161244582595e-01
8.177266478905079183e-02
9.601836961641869311e-04
-3.185422579545907351e-02
-1.908185916375714289e-02
-1.947585771034173602e-02
-4.172383269889037155e-02
-3.668518762008374928e-02
1.088135387869802739e-02
5.963955145065544250e-02
6.864212918075816849e-02
4.422341141266261655e-02
3.111218560381489792e-02
3.625198312208752216e-02
1.989997350029567430e-02
2.399949869517099127e-03
2.670894908947228641e-02
2.265913254216251130e-02
-6.801758105395616649e-02
-1.368063938500957422e-01
-9.340191629426805586e-02
-1.832892216899725812e-02
3.490430494701950506e-03
-7.283713141410904507e-03
-2.331216318383648803e-02
-4.522367163398329643e-02
-4.798286019318932089e-02
-4.785586808164205355e-03
5.333504685877163420e-02
6.252733436012679336e-02
1.069060311834883932e-02
-4.703761242863550157e-02
-6.640478274280139925e-02
-4.788633869746953403e-02
2.950923381894752194e-03
7.557920918885263628e-02
1.385965464718165452e-01
1.758801224301640709e-01
1.961632383363805798e-01
1.699852059394714177e-01
5.804357562424887484e-02
-3.443600568560328812e-02
1.484167053968413197e-02
5.793631782911591588e-02
-4.843905202852091807e-02
-1.304558798932618779e-01
-8.064076440899797804e-02
-3.968528068074637927e-02
-4.214180222690094846e-02
-1.442430416366960975e-02
-9.687915441934015492e-03
-8.429480559813230800e-02
-1.551639674052287254e-01
-1.609709528249692045e-01
-1.539772221251868300e-01
-1.744871739831617696e-01
-1.840207485438933310e-01
-1.104887332487162060e-01
6.297298708654303079e-02
2.246947278601859332e-01
2.374189023110385988e-01
1.199726258207265694e-01
9.672777471587623577e-03
-1.769031368021846753e-02
1.568676745589094035e-02
6.851796066508407390e-02
1.073186853533658752e-01
1.037663350306442106e-01
6.224450721343696702e-02
1.806567717462026490e-02
-1.001222816700977555e-02
-2.368772914959756809e-02
-2.858804201348631030e-02
-4.480412006257997876e-02
-6.043252159382742073e-02
-2.610204655074187599e-02
3.072104054274518714e-02
3.852655375233932089e-02
1.894303895310390021e-02
2.083048379683898402e-02
2.916564187905028652e-02
2.828230827510359868e-02
2.428005773492544067e-02
8.417284826538180484e-03
-2.763686517146236865e-02
-6.437420804044508005e-02
-7.120013742971648130e-02
-4.901555849761941863e-02
-2.634130523751548880e-02
-2.467093697739532882e-02
-4.697201737565691315e-02
-6.188895176898899508e-02
-3.323495136894043939e-02
1.218366726132609490e-02
2.487983911953945207e-02
2.234819068494709252e-02
4.493284032797800059e-02
5.732842860351972797e-02
2.177540134803285232e-02
6.242472700650575530e-03
4.799206548840653092e-02
6.152984078565236492e-02
1.677478702793515353e-02
-1.697561192813158704e-02
-1.459241984620731139e-02
3.877630058045002798e-04
1.697692196122610811e-02
2.824142689579855689e-02
2.405759603183650272e-02
8.630228836914867474e-03
6.534500986424955117e-04
-2.145918179485084912e-04
-1.602126641276750349e-02
-5.516385132808205444e-02
-1.073353245273808154e-01
-1.294056252337344448e-01
-5.808207567538219152e-02
6.918130339118870598e-02
1.044784326998991764e-01
1.977448109848234381e-03
-1.058892512627376270e-01
-1.086203196994251913e-01
-3.723204150719391231e-02
3.414204414128748505e-02
6.641357085087112866e-02
5.165620353309072904e-02
2.406979649301592070e-02
2.081045280536753667e-02
2.446143041261290146e-02
2.618452427312838171e-02
4.578077591553525449e-02
5.510259183893597562e-02
3.868399602180129515e-02
4.189593669106993212e-02
6.185319210805293594e-02
4.546986178134494044e-02
-2.022049698939420645e-02
-9.124435720260609672e-02
-1.012005631998598998e-01
-5.708730108875606502e-02
-3.343300900371561080e-02
-2.321022261198994047e-02
1.456963460261752330e-02
2.704201331861045762e-02
-1.023747563204821694e-02
-2.342240331402998740e-02
9.275722113964718005e-03
2.680817780563153618e-02
2.920346609587390861e-03
-3.280200333845521149e-02
-6.195724510310712113e-02
-6.641331029017899512e-02
-8.793131923300806507e-03
6.981013367992947027e-02
7.023397192628083596e-02
6.283663232230779841e-03
-3.434887575857471093e-02
-4.484946200423306495e-02
-5.936489295983576886e-02
-6.517722612245202551e-02
-2.943568114391865304e-02
4.107551185746451117e-02
7.930547825512762605e-02
4.691883662093845886e-02
1.991563964087020994e-02
6.464802290623307413e-02
1.376120688699870587e-01
1.990094226546122169e-01
2.443218565300810663e-01
2.399537798746761430e-01
1.708978971953621917e-01
6.529525610591127571e-02
-4.211309217302498797e-02
-1.350063242765341398e-01
-2.185183148547311938e-01
-2.372930584886456529e-01
-1.652698804226793439e-01
-1.454111617602394102e-01
-2.073771153129093936e-01
-2.064884488357927594e-01
-1.832671822832124542e-01
-2.175848205882459641e-01
-1.927551774428798714e-01
-7.286015516508326240e-02
3.828713678370994355e-02
1.062630823333315239e-01
1.411948550474704522e-01
1.558642629361389476e-01
1.779606535591073402e-01
1.860254025612977369e-01
1.526082378808131801e-01
1.158108977439813864e-01
9.365310482193771324e-02
5.653057787766896380e-02
1.465508158678041975e-02
-1.439939837715165788e-03
-3.046183378759514254e-03
-5.932625928980628932e-03
-5.755786539293546167e-03
-6.801895218185596836e-03
-1.052646182399619504e-02
-9.068106149796806292e-03
-1.513843023898420528e-02
-3.902480019724988841e-02
-6.046197892843618860e-02
-6.842087556510979829e-02
-7.231148628887615337e-02
-6.141600281542847206e-02
-1.718318619289366939e-02
3.175051176174262940e-02
3.556096323696326944e-02
7.764212722951328513e-03
3.066207050035233382e-03
2.730153562015990437e-02
4.618943090726042311e-02
4.132470390042580766e-02
1.207784172617126610e-02
-2.597389829514815118e-02
-3.762673753650729036e-02
-1.952407225173882419e-02
-1.574832932984456327e-02
-3.126613167688106071e-02
-2.701275209441404701e-02
-9.865242674538652126e-03
-3.193991140951291628e-03
2.098952972425793470e-02
8.085974821193073203e-02
1.312042314888914596e-01
1.282649097148112760e-01
8.745925279838367983e-02
4.814046956678447869e-02
8.511506842112924812e-03
-6.815128093785235985e-02
-1.514214348580545377e-01
-1.354889288878359521e-01
-1.535291137619098495e-02
6.831153975546171153e-02
2.532901709307383217e-02
-8.779205216192877137e-02
-1.722803876765104936e-01
-1.849014830070940807e-01
-1.350463630387376823e-01
-3.384813937861311933e-02
8.682185905772708823e-02
1.328391280843449207e-01
6.038217185718665336e-02
-2.428912813607118568e-02
-1.677521928787156086e-02
3.931620460082047713e-02
7.181334161868987986e-02
9.617709460299375679e-02
1.265992147566750159e-01
1.249597549939377716e-01
7.197121362460939809e-02
-7.050560299152559482e-03
-7.120500793586216626e-02
-8.994833978253188866e-02
-5.398913196103777290e-02
4.434500104515766775e-03
1.435401197554195263e-02
-3.309395435653014750e-02
-6.213465240240891724e-02
-5.328081233750947554e-02
-5.873020619713602980e-02
-7.227000464964192239e-02
-4.469403806027638648e-02
7.837527775366099833e-03
3.846502155179008786e-02
5.682619950344500875e-02
8.692061199376031888e-02
9.528108397125989448e-02
5.603434812054762515e-02
2.354319113810011271e-02
2.112181869626082731e-02
-1.655695532117126140e-02
-6.857764768767511676e-02
-3.312460339750544075e-02
3.277414455818592615e-02
2.807276869087560640e-03
-5.703362678902162280e-02
-3.682190611563018051e-02
4.927946920516782479e-03
-6.542185222469481046e-03
-3.334238541815671975e-02
-1.886400753357336812e-02
4.001643687629968804e-02
9.494372141270869536e-02
9.208130312693567354e-02
3.300230597286386847e-02
-3.281579169849156707e-02
-5.736416622731348169e-02
-4.316314343071597781e-02
-5.372998148605261787e-02
-1.092296807375916501e-01
-1.139439923511298275e-01
-5.202782088633853275e-03
1.211560871234632908e-01
1.581253794487750552e-01
1.200967757969300942e-01
6.168718559162003623e-02
1.374412586880984465e-02
-1.003952526150258748e-02
-1.632939448161712520e-02
-6.272304280459642736e-03
1.654287054440339855e-02
1.961921909646895806e-02
3.322386249405536243e-04
-7.042776466802888602e-03
-2.240597468304586504e-02
-8.805220898904522753e-02
-1.628449732222730373e-01
-1.724722667766884487e-01
-1.243521990653175674e-01
-8.715019156065080541e-02
-7.220624691636268189e-02
-2.410527125087642136e-02
5.315681534858326951e-02
8.319579893546319438e-02
5.445663094716903657e-02
4.878403407380486889e-02
9.361233206291504072e-02
9.991552943087173011e-02
3.655034782206488531e-02
8.889931098847623017e-03
5.528127128274729768e-02
8.482827370356943453e-02
6.206371285082522282e-02
3.394059638132074230e-02
2.067455325561895485e-02
7.912022330300763628e-03
-2.373761455517566996e-02
-6.165204392304711456e-02
-5.160101715719510318e-02
2.585150503919293047e-03
2.430636567282798075e-02
-1.892518773303486935e-03
-2.040297530513111163e-02
-1.610683040116358752e-02
-1.571642155606045588e-02
-2.243285643683614120e-02
-2.943439222506172986e-02
-3.887668315916316397e-02
-3.006160755274690788e-02
1.421742597612761332e-02
6.122763026389806823e-02
7.132715463041530701e-02
4.677450541373245202e-02
2.069285225584326440e-02
1.278957786713544667e-02
-4.137578427203820325e-03
-5.835050771519367102e-02
-1.144183111634817646e-01
-1.052491699202656311e-01
-1.996533311449368020e-02
7.509974659733768820e-02
1.026365873114872124e-01
3.992405706885732153e-02
-5.793459679679205387e-02
-9.891821382674724494e-02
-5.925976453819101208e-02
-2.803107122501455589e-03
2.670641799226722984e-02
3.278020586520932755e-02
1.175253774929908672e-02
-1.766268835564011042e-02
-2.145980935289561534e-02
-1.638122016157316993e-02
-7.004831537921404026e-03
3.777750118839298676e-02
8.257682816243719359e-02
7.880423058610822040e-02
6.086379638349598276e-02
4.660542256441450870e-02
-7.391030176820139082e-04
-5.807375940379699841e-02
-6.672604735727016845e-02
-4.506719691067843925e-02
-3.432770885051616289e-02
-1.757807369785745200e-02
1.135827723799752442e-02
2.032606428073848587e-02
3.825562447842688514e-03
-2.345070223890658931e-02
-4.481421247724816370e-02
-3.933570796812198289e-02
-1.127000652362444150e-02
2.440235236632979504e-02
5.352554849426541944e-02
4.934428218764544405e-02
2.366648124573157708e-02
1.975239520501305759e-02
3.110257107770201396e-02
2.437978305487283753e-02
-4.449540219990956100e-03
-3.120012088943054096e-02
-2.078093481603820666e-02
1.815971782282416180e-02
2.895395084586695894e-02
-7.953208639940159697e-03
-6.301077352659791020e-02
-1.048481124735204106e-01
-9.900636034719499656e-02
-2.460465232340551534e-02
7.165452629926005734e-02
1.041993825653702299e-01
6.157294801995549793e-02
1.720057761051769357e-02
2.610206686415232971e-02
9.622627775443762244e-02
1.708003968612934187e-01
1.177045309698868114e-01
-6.623893204362461817e-02
-1.811783315664259320e-01
-1.421425379700428926e-01
-8.024103561161585740e-02
-7.318038478100241662e-02
-9.872782507105545835e-02
-1.648165493784780888e-01
-2.149965788048709414e-01
-1.286844096978270180e-01
2.467887868446391048e-02
8.815965931997521432e-02
1.073156988301998127e-01
1.551241235618174841e-01
1.712668474100138283e-01
1.480155833614874017e-01
1.440459243444945359e-01
1.519965460490864950e-01
1.369779638068639727e-01
1.077692914481217373e-01
7.777842990646202659e-02
2.810152922496795408e-02
-3.698286285516925315e-02
-7.056239338952066675e-02
-6.187404082812015399e-02
-4.115820582501326930e-02
-1.951121112280826408e-02
-1.787875124188952058e-02
-7.770950670287776751e-02
-1.769582594230584283e-01
-2.343201511245310564e-01
-2.133582010141340246e-01
-1.457237606507710559e-01
-7.498272631307270619e-02
-2.128400279916380089e-02
9.759379039146313245e-03
7.893721161798459424e-03
-1.355713682899253869e-02
-6.725479384470229444e-03
4.800741895111282354e-02
1.236235640290379717e-01
1.726226811707419206e-01
1.558528985451843596e-01
1.059058293275409735e-01
7.636284105397807276e-02
3.816331263391268408e-02
-2.225942027767854187e-02
-4.235610803938985591e-02
-2.044845924660000647e-02
-7.000765878171725382e-03
9.533287182394519291e-03
3.838880267189086204e-02
4.144437844183569003e-02
3.224609326110616098e-02
5.200729649734005949e-02
5.511153965139053978e-02
1.238750263893451282e-02
1.682721801359856120e-02
4.065931418556879146e-02
-9.028769758392760081e-02
-2.582964502934486095e-01
-1.837891481550144590e-01
1.904058595914936633e-02
8.161756522907739897e-02
3.155296311188123676e-02
-2.335397930684743328e-02
-7.506684624607491696e-02
-8.274591661887160943e-02
-2.596841124856127947e-02
1.984482830560220859e-02
1.875645312815247406e-02
1.783406929565955340e-02
3.881906999801091468e-02
5.104383880257566675e-02
3.658546512904498060e-02
2.345151540644705226e-02
3.105915449288127947e-02
3.187629556528984165e-02
1.781638877172492599e-02
1.652632083764057555e-02
1.978190565992532512e-02
4.864938379845482400e-04
-2.198496173155272890e-02
-1.287482116944176427e-02
1.645173856044122515e-02
3.228590635946892995e-02
3.310918332563875938e-02
2.097338460549068653e-02
-3.366249905383025820e-02
-1.162620941172679834e-01
-1.352888553372928737e-01
-4.560459724304236767e-02
7.563196107362818443e-02
1.178109827519274733e-01
6.008445598627681905e-02
-1.654676070878849381e-02
-5.153745042001112858e-02
-6.629649742329665751e-02
-5.742020251527103769e-02
1.225993269705182194e-02
7.747518006548859137e-02
4.651821671559208671e-02
-2.066783279584244112e-02
-3.499857395855530962e-02
-2.923239922616387154e-02
-3.250010091662444700e-02
-1.235516020232033108e-02
2.646860063751580935e-02
4.187684387903885253e-02
-1.168306021724115594e-03
-7.942661573899044425e-02
-8.812747488711182575e-02
-5.166616741479959640e-06
6.382378262695498350e-02
5.080344034647640838e-02
4.963888176662667462e-02
1.012901215942608873e-01
1.522315600540690150e-01
1.319970898753752842e-01
-1.634958934501315247e-03
-1.307701688227360382e-01
-6.496249119473551659e-02
8.170217301178242519e-02
3.508540800526606385e-02
-1.264246118574732791e-01
-1.491555644801454139e-01
-6.585721284412029974e-02
-3.241298895088599169e-02
-5.021667166991629350e-02
-7.306258600253301427e-02
-8.592326695175210582e-02
-6.405655363344316122e-02
-1.029232225110559250e-03
8.434554355496730327e-02
1.641928946311237425e-01
2.026508517854828939e-01
1.825844368545010421e-01
1.141026441624127807e-01
2.829770685747249465e-02
-3.706306235379612513e-02
-7.806749105260808730e-02
-1.105911436762319622e-01
-1.326925104099871133e-01
-1.412816304817840485e-01
-1.248379400181752752e-01
-6.485062272206418288e-02
4.694936306882615921e-03
2.852578378296014364e-02
1.984479261488700588e-02
2.414541281819508264e-02
4.502937634070768025e-02
6.838015984110797085e-02
8.792254136252239394e-02
8.893453972270716490e-02
7.276738361896975538e-02
6.957562398419210592e-02
8.473927671476273737e-02
9.074326897243174816e-02
7.975432917460817395e-02
5.315234649229175212e-02
-1.155921573800474875e-02
-1.073205023743787068e-01
-1.764166050200323688e-01
-2.108070512904049454e-01
-2.549951032802298956e-01
-2.461568531853653707e-01
-9.302533315113147017e-02
6.213915922252286062e-02
5.640774902484077535e-02
1.666734382073249005e-02
6.636937045588449380e-02
1.270729878095266663e-01
1.604479791970477853e-01
1.843720218064983374e-01
1.598766676196906877e-01
7.745158789760442364e-02
-9.474783147296706592e-03
-6.609489156804253251e-02
-1.059678199888719474e-01
-1.346612826621652326e-01
-1.098945778672376083e-01
-2.364698558163664394e-02
4.750639248000872172e-02
4.265358836689670669e-02
-1.998746362794408260e-02
-7.911215426070083989e-02
-8.045312917029996680e-02
-3.138306992926976485e-02
1.462083186964303200e-02
3.769543605141856268e-02
5.362206578628023190e-02
7.438933221560281583e-02
1.020181036294593308e-01
1.144343015880612824e-01
8.301144839304247514e-02
2.403722933258143832e-02
-9.160261733722115454e-03
4.100506133526627545e-03
1.351417966374866830e-02
-2.035569958513406413e-02
-3.638716677816640488e-02
1.643609242291692307e-02
1.832778401393422157e-02
-1.293160252073264072e-01
-2.249806220000567514e-01
-1.002639680267238820e-01
2.771249709985907500e-02
-1.123683144060711597e-02
-6.174434412913717973e-02
-1.350911298074418052e-02
6.156066821295033686e-02
9.311167658765318045e-02
7.276629451781854718e-02
3.612148937667455928e-02
1.365998927884853539e-02
-3.444837670863338912e-03
-6.665089269615889420e-03
2.327556298140878374e-02
4.408567780640484934e-02
1.352341830203962827e-02
-2.537785805713291959e-02
-2.373577442572199353e-02
-1.088084416981055340e-02
-2.508330009215627154e-02
-4.411601843673733370e-02
-3.566680066153083556e-02
-5.760582358170653061e-03
1.425674434658272954e-02
2.230325864831599579e-03
-1.789470392824886805e-02
-5.138231765565233651e-03
3.982940212884333170e-02
8.400280801112595952e-02
8.664624053578555418e-02
3.040730373193964442e-02
-3.849781474725035013e-02
-7.855617866049161013e-02
-1.048197362270717331e-01
-8.559972406640453668e-02
2.262127236001014799e-02
1.244432567277920093e-01
1.086809060470501631e-01
1.978956653836230761e-02
-4.313981414804778786e-02
-4.908357355790859966e-02
-2.614519744723072664e-02
-1.832492810280744039e-02
-2.902779338121317179e-02
-2.895017592831268527e-02
-3.700328636447322572e-02
-7.644952640825504464e-02
-8.017202431831348119e-02
5.011749796198666264e-03
1.086916436006202247e-01
1.464424061306892622e-01
1.287432092548594920e-01
1.004037756169545853e-01
5.960157700347523679e-02
7.119329953224323021e-04
-3.023568960740158351e-02
-1.666125069768356962e-02
-2.171154342307560561e-02
-6.780832540037926015e-02
-9.157242171365349848e-02
-6.378487466169491249e-02
-2.781752749562324545e-02
-2.443280622140429556e-02
-5.195979640603193284e-02
-7.557514055178349288e-02
-5.898121510073355694e-02
-8.654570590216299764e-03
2.672931302483310539e-02
2.488430523650503670e-02
1.570374103405075203e-02
1.329511442050901326e-02
1.039741261981845348e-03
-1.011198212390680175e-02
8.618377281639966539e-03
5.316970984356291646e-02
9.028453495022231712e-02
1.012431156110235597e-01
9.499366383389645785e-02
6.930787492297146857e-02
1.729727818803882683e-02
-2.954635876815328577e-02
-3.552288085373944693e-02
-4.774648320943351149e-03
4.013948765986705136e-02
8.114526592525724003e-02
1.021398213136424926e-01
8.821935514851086957e-02
4.065922601277873610e-02
-1.848633677712751416e-02
-7.475167853513657590e-02
-1.334271833695887532e-01
-1.909363590641672270e-01
-2.330962957136441249e-01
-2.498488202872638231e-01
-2.000097597438352526e-01
-5.055139315160933622e-02
1.071245778330956189e-01
1.437454522133550516e-01
7.119878297373211096e-02
-1.140543042803122964e-02
-4.402118787614899692e-02
-1.592238344732035266e-02
4.137388635096145295e-02
7.605363236619017142e-02
7.333101225156919700e-02
6.497484039910145226e-02
7.188771548308853232e-02
7.158584074471346925e-02
4.730768309683965056e-02
1.810869757004094152e-02
-8.571678233632688826e-04
-8.679329292528825332e-03
-6.051993663234922147e-03
-6.882010891987736315e-03
-1.193267139510757052e-02
5.727203813460543871e-03
4.017525839608093730e-02
5.159136908410939110e-02
3.612920326690763351e-02
1.877944694786317162e-02
2.957742698516887744e-03
-1.226558230037323206e-02
-1.474715362475466189e-02
-2.502707229019056692e-02
-5.689406161984841143e-02
-5.094184542248518521e-02
-3.026121594253153302e-03
-4.750356285926492401e-03
-4.844111268183195346e-02
-4.215389823892806698e-02
9.833905982209767069e-03
4.242003042090178311e-02
3.271448552866338538e-02
5.191595316294682523e-03
-3.630988385998428457e-03
-2.221068133353667606e-03
-1.827228636147882126e-02
-3.382431519178645540e-02
-3.907509404410299675e-02
-5.963932236736740194e-02
-7.480636492336656396e-02
-3.681121947217672746e-02
2.830081706596804594e-02
6.320503323559943654e-02
7.062587440524878413e-02
7.103552692524942036e-02
6.610937457185744881e-02
6.157593713215855219e-02
3.972115972603060957e-02
-1.733351364589576921e-02
-7.966085392035021640e-02
-1.278351824872077103e-01
-1.435414420623823684e-01
-7.723984949208384521e-02
2.577793899949863687e-02
4.453330621831701197e-02
-8.489693279442385443e-03
-2.079122099593554152e-02
2.903247911984859972e-02
8.301079153360185758e-02
9.946328579482696663e-02
6.548930102161457101e-02
1.564046662323781076e-02
3.953668451586529048e-03
9.167301898287882542e-03
-1.260917017261045138e-02
-2.481054032007330712e-02
1.028433345274296258e-02
5.914265852620592678e-02
7.369004566043910187e-02
4.952702300739178498e-02
3.119670625331443306e-02
2.189255658443177779e-02
-3.580096450591703505e-02
-1.073896635410307027e-01
-9.140086427698092264e-02
-7.297710676439788519e-03
4.041621561523531247e-02
2.121856093263881082e-05
-9.585171635634129328e-02
-1.461990508564919855e-01
-1.082739126446752020e-01
-5.734056729920277568e-02
-4.354912136949088200e-03
9.112509197945173334e-02
1.363308029911674546e-01
6.473516689674593816e-02
-1.194489145686638762e-02
-2.101924305688796651e-02
-1.799000570480177585e-02
-2.278538257285671678e-02
-4.053594177285173294e-03
2.328993525241821599e-02
1.954366939140707998e-02
-1.857415482724399103e-02
-7.082609598747834079e-02
-1.136148496981489037e-01
-1.073045310991071338e-01
-2.642158026053006287e-02
8.093026719636770006e-02
1.449169370629974363e-01
1.800962830729438413e-01
2.287332239717693450e-01
2.602606566851596859e-01
2.425198553866254603e-01
1.916338189876415354e-01
1.059010291819634936e-01
-1.252793914900017513e-02
-1.153297835575553126e-01
-1.792199945704948116e-01
-2.470952693736251371e-01
-3.297064357623756825e-01
-3.195069220010346434e-01
-1.542395904288147990e-01
3.204360367106591501e-03
-8.219118815089916652e-03
-1.038377878253955722e-01
-1.516621229323914799e-01
-1.515430099031293554e-01
-1.114270260502859128e-01
-1.146858614376728563e-02
1.073592630602450693e-01
1.814441077646453682e-01
1.907899779544989793e-01
1.621191056662897312e-01
1.497651773801189912e-01
1.573214368046683964e-01
1.308475286637236779e-01
7.144592424255490071e-02
2.810036957358721249e-02
-8.112167003629724982e-05
-4.107560511028775924e-02
-7.108789335380184815e-02
-4.882550813383824961e-02
-1.341576323883315533e-02
-2.622404011328650225e-02
-4.478095350730677132e-02
-1.936276293691267802e-02
-6.952021892412497267e-03
-3.343671966687979114e-02
-3.186803338909539179e-02
1.291159071465524527e-03
5.389065722441141806e-03
-9.771313479323516862e-03
2.910056281035262177e-04
2.321963314387134880e-02
2.127629868149170933e-02
-2.932824394945398108e-03
-7.183068386240473550e-03
1.677325410091819180e-02
2.794878025224233759e-02
2.647756456032735600e-02
3.113708111894671407e-02
1.637438307660496126e-02
-1.782249765369813173e-04
-1.459668432724714124e-02
-1.065972478235011484e-01
-1.964975688933463527e-01
-1.188669872567262586e-01
1.931482697953174413e-02
5.082702455577130241e-02
5.041187707729736373e-02
1.077268295500664747e-01
1.595864762565577799e-01
1.492158533335522785e-01
1.078409465005343570e-01
6.747876743370453956e-02
1.911661000498911592e-02
-6.687534859578866953e-02
-1.934680984189725839e-01
-2.479089491182798755e-01
-1.119676422109543990e-01
9.196744080550423028e-02
1.373224926042477534e-01
2.501777223416781076e-02
-7.745993710501129781e-02
-9.647539462547062572e-02
-8.194843399436692322e-02
-7.407289045021932250e-02
-4.411659408484588929e-02
2.651621031574798171e-02
8.428842598572884592e-02
8.222808888615144862e-02
4.921774271983789251e-02
2.776684368196397079e-02
1.880989064056902763e-02
1.825014225438568310e-02
2.310641776542031456e-02
1.274538660701320623e-02
7.013779200035041850e-03
3.776292009142567102e-02
4.052863391518544967e-02
-2.616566706836512615e-02
-6.227924213494941130e-02
-1.897291011218380646e-02
1.267081414322594052e-02
-4.795745883991464793e-03
-9.853807404421651567e-03
1.931821559891334222e-02
5.859623660470829332e-02
8.555655424182068147e-02
4.064809417901344563e-02
-8.513217137957038161e-02
-1.552197891619362946e-01
-9.282156918336792462e-02
-8.647699642201868084e-03
-1.884387604247078976e-03
-4.828350208238278707e-02
-7.221711006286918311e-02
-2.137029766866632360e-02
6.486162528844537090e-02
9.533594095119307665e-02
6.676182304381188259e-02
5.187822434382693970e-02
6.136817061219494718e-02
4.794550279930188258e-02
1.641816077241074756e-02
9.431957181094977050e-03
8.646663995549990281e-03
-3.963025431219259487e-02
-9.797389160603438285e-02
-6.463873967016135758e-02
5.052923926093760149e-02
1.295709321843110662e-01
1.214238835052829923e-01
6.652920603854992065e-02
2.030819756048110082e-03
-6.179603586469935295e-02
-1.335037635325597438e-01
-2.087372233821679079e-01
-2.186852351217011270e-01
-1.135778104867184168e-01
2.912997092167320806e-02
1.200085870448752839e-01
1.590123044645262995e-01
1.444307285744204916e-01
8.303028082170667290e-02
4.162760013816410587e-02
2.762906326843079380e-02
-5.527653377688728810e-03
-1.518350921817842279e-02
3.854602693460102564e-02
7.894392657393775603e-02
5.305517201867045868e-02
-4.081577263641447510e-03
-6.308821277480747280e-02
-1.096073218622108103e-01
-1.397301553657167295e-01
-1.604706637558236115e-01
-1.462066154560013043e-01
-9.129158508034383723e-02
-4.504120467816634388e-02
-1.941964321477404609e-02
6.816245645034316181e-03
3.107913346564374069e-02
5.954041139294101448e-02
8.978172579285476074e-02
9.528470378464393153e-02
8.385975039853456325e-02
7.193454438792121208e-02
5.566757558425834002e-02
5.490650010754538624e-02
7.310428519431177996e-02
6.451780809871018874e-02
1.756986586981754833e-02
-2.655627980648543954e-02
-4.791823864275679412e-02
-5.123160481754332474e-02
-3.383435667331347041e-02
-1.987570882065395339e-02
-4.418852421291159793e-02
-7.199944558893060786e-02
-5.403582960411057456e-02
-1.846973988738936923e-02
1.178672324029322871e-03
1.652191100319854583e-02
1.794790479661904914e-02
-1.659075148900031500e-03
4.747909267679290002e-04
3.121826836552049622e-02
4.952455130420185120e-02
6.425827174536097308e-02
7.707810813238255565e-02
2.946974732601390090e-02
-1.944125226754236241e-02
5.480849316228077889e-02
1.127013825113152984e-01
-4.168799668201564335e-02
-2.259871750579159899e-01
-1.769463982696533877e-01
2.517158566443268228e-02
1.564475130800740410e-01
1.369965054251470193e-01
1.784132639641612672e-02
-1.028622815110949301e-01
-1.472986323743873116e-01
-1.208161915379170892e-01
-7.458343747137644031e-02
-2.589601410168178991e-02
2.493880540918684552e-02
5.161879764857085079e-02
3.948990980768511683e-02
2.012384058345173879e-02
1.533223236902498884e-02
1.431387136727212128e-02
3.078197117175477185e-02
6.992584335122668804e-02
7.090207922650756944e-02
8.949960627365995819e-03
-4.665104029165977051e-02
-5.774921630032724129e-02
-4.321774056113363016e-02
9.152028431833667335e-03
8.292531852673758197e-02
8.630555083583188458e-02
1.266246680888356499e-03
-7.347018260047796789e-02
-8.334101581479731735e-02
-5.850370499927139145e-02
-2.429585994155960063e-02
1.344783984916799943e-02
5.406938830176894611e-02
7.564310859294673395e-02
2.652201410349435198e-02
-5.773569311505866164e-02
-5.957765841165793552e-02
3.991840152002747166e-03
5.566711443672055053e-03
-4.095648702468176333e-02
-1.481554749779449842e-02
6.937741980712534839e-02
8.472228658873680318e-02
2.136239820897273961e-02
-4.970570022750196368e-03
3.291785275528436722e-02
4.314797420140872170e-02
-1.426851203228575709e-03
-3.699999729384215175e-02
-3.505160833683395455e-02
-1.417995553709010433e-02
1.168791578240349453e-02
2.800025091032540270e-02
2.258602308697402888e-02
1.738486055965500487e-02
3.662365695948075622e-02
4.804504045783859756e-02
1.902231178631555615e-03
-9.821796305235104552e-02
-1.771449676495328029e-01
-1.476598327223047069e-01
-4.250304714319525640e-02
1.641907112416943898e-02
-5.791069635479265815e-03
-6.695138481913714967e-02
-1.161996397570705108e-01
-7.846769119338725673e-02
2.699003984982078705e-02
7.903011768142303994e-02
1.309409433184688387e-01
2.934522762491438286e-01
3.658090215510493293e-01
1.903649475771873600e-01
8.962594034012139402e-03
-2.953353667352110606e-02
-5.939689249127483306e-02
-1.224251804227756424e-01
-1.705410882681565876e-01
-1.568073694210503910e-01
-3.727418568609734695e-02
4.686487847416721808e-02
-3.372453433204433693e-02
-1.050725684180343900e-01
-4.864013360394360552e-02
-3.508486115608004836e-03
-2.567762909291860726e-02
-4.376418738353847482e-02
-5.199281942708787463e-02
-5.663733382588246462e-02
-2.736614717680272910e-02
2.611982304658022613e-02
6.923930456647882370e-02
9.686614832459805591e-02
1.117137181738298152e-01
9.433873818686275281e-02
3.826860692957080590e-02
-5.007227395508706894e-03
1.123403548794834478e-03
6.371767373154691577e-03
-2.498128428653622821e-02
-4.746615031638060089e-02
-2.355594581645661240e-02
1.759745632791917536e-02
1.859099256896847366e-02
-2.396177502860138975e-02
-5.390749331631043001e-02
-5.423170847024570695e-02
-4.778208970884575968e-02
-2.494207382904197953e-02
2.546243421759100331e-02
8.080227780071501387e-02
1.154172651542459682e-01
1.189406449710615210e-01
9.289959347209446328e-02
4.262903455254248714e-02
-2.254279409231377956e-02
-9.034638485274751329e-02
-1.427692857455780950e-01
-1.356509882881899998e-01
-4.240532226975155666e-02
6.886147252526331197e-02
8.987516512801912993e-02
7.985803764778219571e-03
-7.910529338282103196e-02
-9.032166665554823559e-02
-4.455418019509838068e-02
9.009341578420015581e-03
5.757017470499344730e-02
8.053309892521293145e-02
5.343717347173269211e-02
8.709841992793078067e-03
-5.586566934471899441e-03
8.752069432799037402e-03
1.610145095396023698e-02
-3.824110545997346650e-03
-2.464386784089796917e-02
-1.735398406426045398e-02
-6.203093335713737860e-03
-1.696667873494622086e-02
-2.400613306114321790e-02
3.768877566994010241e-03
4.987815909034155198e-02
5.878276592400943912e-02
8.846181906900382752e-03
-3.886655490830071696e-02
-3.173347467462547811e-02
-1.837664516593689665e-02
-6.166401463486047285e-02
-1.107196216188966464e-01
-6.170287401902754126e-02
5.554868784283967936e-02
9.157512761522568212e-02
1.692893272121210463e-02
-3.618334759738245365e-02
-3.428360417872712215e-03
3.461935237055584202e-02
2.148995196996546231e-02
-8.629555891139315676e-03
-3.228541056256874209e-02
-3.069254756618263955e-02
4.247853287653857723e-02
1.316253867386004694e-01
1.128208578575660564e-01
2.126979074955228852e-02
-1.673506550525642039e-02
-1.316496179575760844e-02
-5.823265562139230689e-02
-1.305964960908978789e-01
-1.197593872665350112e-01
-3.102842070807301095e-02
5.622011292280390538e-03
-4.826144437017853422e-03
7.067426456744854701e-02
2.074649275685162553e-01
2.497238995372645931e-01
1.513126225079175213e-01
-8.916378092785238671e-03
-1.407211945392740082e-01
-1.904279198344265289e-01
-1.500277414884485239e-01
-7.627799979878747971e-02
-5.491322202046999140e-02
-5.703238481076639693e-02
1.019918024000340817e-02
6.460794485467469261e-02
2.181632362182030216e-03
-6.666965160731933016e-02
-6.155234224888746219e-02
-4.305352087117664261e-02
-3.591586397740847113e-03
7.785524704795515616e-02
1.181274598930845271e-01
6.803302172070821441e-02
-1.859969816932129788e-02
-7.977564583317556246e-02
-8.115602820895836955e-02
-2.954096234173728824e-02
1.966967017311982424e-02
5.201007481583055925e-02
1.046276158404755019e-01
1.641866389076232779e-01
1.895557555477188627e-01
1.841023519227093508e-01
1.546939835237205463e-01
8.390635789805191147e-02
-2.238536224618563678e-02
-1.207555776221670152e-01
-1.731774544353215373e-01
-1.755286761914955918e-01
-1.484038177235123546e-01
-1.214820528378244002e-01
-1.129529042942155337e-01
-1.171860506563370402e-01
-1.188707722448130583e-01
-1.016320062850524786e-01
-5.735806552665905639e-02
2.718139475861025556e-03
5.853775404494417078e-02
8.845942606945884912e-02
9.097901402048644282e-02
9.204198851117038893e-02
9.184384391006893134e-02
6.967392998046360864e-02
4.085187823254994577e-02
2.299587540082718984e-02
-2.880107613226616861e-03
-2.595617787762773826e-02
1.152494988538931703e-02
9.352963742994001295e-02
1.235239656507227946e-01
9.274086268801734478e-02
6.999507459697754119e-02
4.345053114670319183e-02
-2.427360002912927125e-02
-1.031679718313290028e-01
-1.758189598167678447e-01
-2.166068100514398076e-01
-1.458577669148465872e-01
1.110665253102176286e-02
1.034368365584577287e-01
6.823363051933736823e-02
-1.780976431500188098e-02
-6.680897912908102809e-02
-5.721559940190660415e-02
-1.911403977158838974e-02
2.179446537321059335e-02
5.902134762023962533e-02
7.537675450306967340e-02
5.825008135698901690e-02
3.540734706996405412e-02
4.016387555143891702e-02
5.475550122194427355e-02
3.726516288166653590e-02
-2.681004968882629794e-03
-1.084002264588482776e-02
6.669993469850397233e-03
-1.953666233903096974e-02
-7.363073399341739378e-02
-6.482862252493776234e-02
-2.002716747158156396e-03
2.996463605383046028e-02
2.074525331503382364e-02
1.890233650377282082e-02
2.724944667611986851e-02
2.877715757826260386e-03
-4.718635286836872500e-02
-5.970086641013580553e-02
-3.196733439086022616e-02
-1.700323644150733560e-02
-9.116336611541830254e-03
1.656721869507886760e-02
2.094220552524875614e-02
-1.164587411929671364e-02
-1.929383352002247282e-02
1.504778601000043500e-02
3.658730470453037953e-02
3.556031542843289539e-02
2.522129563662715152e-02
-2.442702254865910735e-02
-9.501559950402352350e-02
-1.030400130374077017e-01
-3.389835058955145697e-02
3.870142689004744951e-02
4.985700733475986052e-02
5.992595056533357722e-03
-2.142503642194727026e-02
4.153474413254181624e-03
3.853787987293951639e-02
6.549513781869563400e-02
1.064535315101822477e-01
1.207811237598545168e-01
7.024242555802762134e-02
6.212657596932458226e-03
-3.522679090708929345e-02
-9.257888530932793791e-02
-1.551722073732390850e-01
-1.321517878123873724e-01
-1.196264823555267393e-02
8.549042558469831243e-02
7.722878486345827187e-02
1.406075389463389003e-02
-3.705252116411809210e-02
-8.078764546776175115e-02
-1.015095356890076961e-01
-3.567645968074083240e-02
6.967050872192409594e-02
9.227344298739698081e-02
6.807891756885132983e-02
8.911024807875428388e-02
8.935819363989669362e-02
1.952768725535236616e-02
-2.834130598239818777e-02
-1.785417617343928662e-02
-7.264831629781431238e-03
-2.562086914963491655e-02
-7.403256641948335881e-02
-1.123425706001807550e-01
-7.472560332386002369e-02
-4.521736834779769773e-03
5.025407740077765528e-03
-1.706104734800073866e-02
-9.364049627004305404e-03
1.681608310168290592e-03
-1.931722647334819729e-03
7.306902450978300378e-04
5.093404993600064365e-03
2.763369282926950513e-02
9.299919693011864108e-02
1.450998083737812250e-01
1.280344657956447307e-01
7.943128299599835906e-02
5.306757267137290901e-02
4.353148561847204612e-02
1.643364308085443898e-02
-2.798826071407571614e-02
-5.947612650818318025e-02
-7.865713317876424360e-02
-1.022599592666931234e-01
-1.175218488642702508e-01
-1.212262091440003409e-01
-1.326454027539351876e-01
-1.302880051914520887e-01
-7.765592063235035591e-02
-2.059518195843105387e-02
-1.982947165194468703e-02
-6.074768713480664661e-03
9.610561325973100699e-02
1.890083075704834803e-01
1.767719935945363807e-01
1.209159348172114262e-01
7.794711796433501094e-02
3.769499099690420268e-02
8.757701216717365955e-05
-4.543547779407548087e-02
-8.924485067641113600e-02
-7.446438037911047580e-02
6.453255277277587798e-03
7.652653905992676253e-02
4.387946600607975367e-02
-8.042816891437264137e-02
-1.526302446219448827e-01
-1.031718791133154900e-01
-4.055536369703942323e-02
-3.173991026470105586e-02
-9.580665090456231409e-03
4.814230207896460362e-02
7.420592439815987262e-02
5.273742513082545214e-02
4.643703751421417170e-02
7.751946159186764995e-02
8.926212361330312928e-02
5.595656716466977654e-02
2.795303023982070867e-02
2.468096756984176562e-02
3.896420663354589406e-03
-3.551945338949936276e-02
-5.146178151355357971e-02
-4.695495248912359698e-02
-4.737658850828761758e-02
-3.988871702055059310e-02
-7.281236506063958058e-03
2.679651275526823140e-02
1.836495025689240806e-02
-3.676291134524865833e-02
-7.972193262251725532e-02
-5.928799722015559714e-02
-6.055326891384599577e-03
1.468908185399423437e-02
5.667706571071266450e-03
1.431948048978066469e-02
3.292810297341040859e-02
3.284336889331264386e-02
3.327640385737709594e-02
4.874421843449174008e-02
5.794184587973729567e-02
4.490660538500188675e-02
1.413811706464867569e-02
-2.234143300075567065e-02
-5.853497689531629578e-02
-8.317408910396964505e-02
-7.533786997217428727e-02
-4.550545159311583654e-02
-2.206658928442492909e-02
-1.485589299575725171e-03
1.791599107147991143e-02
2.644766397756501131e-02
4.459180554520260353e-02
7.056849834051912018e-02
5.811995754100682254e-02
2.017017346038575687e-02
1.559207475654857643e-02
2.834406221181911753e-02
6.768550322922821209e-03
-3.315474599127814920e-02
-3.583680516083195822e-02
1.378987109561338222e-02
7.036142758392191499e-02
7.286549651280789519e-02
-2.449271935926865262e-02
-1.889594053150318587e-01
-2.460849733342519996e-01
-1.136115453057551516e-01
2.523795499961606348e-02
5.496263657308979311e-02
5.951740069068642280e-02
3.798575172835232799e-02
-3.891388897358057097e-02
-5.506515953069483077e-02
2.942186476904502454e-02
8.719712213386060506e-02
7.453367922015488589e-02
6.432072132220810479e-02
8.217541399342319364e-02
9.999816536641122078e-02
7.632097650106445252e-02
3.900413479098807645e-03
-3.045856505870701836e-02
2.084676622874999039e-02
5.048539766109819138e-02
-1.008832385567082039e-02
-7.854763520029348078e-02
-1.179474391852783632e-01
-1.777308176476013468e-01
-2.113537021289319529e-01
-1.238368758375514578e-01
2.486734666505985986e-02
9.395318065272616204e-02
7.392388307709588102e-02
4.761083177828767665e-02
4.122553774169634977e-02
2.266332577282375443e-02
-1.831219151921788593e-02
-3.269323569100834187e-02
1.246482203832134997e-02
6.408624295314281627e-02
7.121584364240621245e-02
5.664752094511472935e-02
3.869654989734142014e-02
2.189548605709802989e-04
-2.727427810298948055e-02
1.331702754869827643e-02
8.616476805027870056e-02
1.143938715147327229e-01
1.113484126524334067e-01
1.229667776545643465e-01
1.190872018480040734e-01
7.847956729915729623e-02
5.777354779912662747e-02
2.957921462028601650e-02
-9.418023784615398020e-02
-2.152376584155013539e-01
-2.256432535984536081e-01
-2.412879562083330709e-01
-2.914018528062158331e-01
-2.217250479135099150e-01
-6.370256716875734304e-02
-1.601301258965706631e-02
-8.477701260825012963e-02
-1.076786210968648655e-01
-4.975424779715524604e-02
7.267685967487204357e-03
5.874644111543144559e-02
1.273797377499652494e-01
1.721540090335690609e-01
1.702425098804620229e-01
1.465639569757508642e-01
1.337061199438431547e-01
1.440378102109257652e-01
1.336350248179290490e-01
7.436382938482932747e-02
2.285243627874091951e-02
3.708256014572239301e-03
-2.985182432619087195e-02
-6.770368371492013759e-02
-6.461841704059587133e-02
-4.923834042749912487e-02
-5.450054915078687834e-02
-4.706119098370320497e-02
-4.159737758391910192e-03
4.108527776379510693e-02
4.265958463072378609e-02
-6.140826236052673338e-03
-5.626037737985080389e-02
-5.163275998761388680e-02
-1.082845372349434954e-03
3.384078219749465238e-02
3.428409962120938098e-02
2.782173418553074082e-02
4.684613835122615824e-03
-4.252160209079555026e-02
-5.984529806536453139e-02
-2.695961451569231504e-02
-1.841629379968240041e-03
-1.811235205533492237e-02
-3.378753597305972356e-02
-1.172170287272592676e-02
5.756450745273030550e-03
-2.707379141628228625e-02
-6.461639742310100465e-02
-5.479079734324224932e-02
-2.259020253736022943e-02
1.590309823544638901e-02
8.350030693087241718e-02
1.426349702512005879e-01
1.329412412376888009e-01
9.374984694990703971e-02
7.664125683553571489e-02
3.595086936052033222e-02
-4.683099423274928591e-02
-1.049456858229271261e-01
-1.226599901697297823e-01
-1.231300967969054666e-01
-6.121129166415118644e-02
6.422378175172253900e-02
1.175092014623100173e-01
2.849916680790510332e-02
-9.129602098300708402e-02
-1.476980211907355511e-01
-1.475161124051723727e-01
-8.952885713733120532e-02
-3.595145002161734011e-04
5.425772331072811760e-02
8.760065876180042621e-02
1.249510336791711251e-01
1.129776869795458827e-01
4.021218221183250896e-02
-2.476683318791029348e-02
-3.136214067848004661e-02
1.653999422267787497e-02
6.590761793097389687e-02
7.593528906288919689e-02
6.192317708386680525e-02
2.386588402917216509e-02
-3.530623616615315152e-02
-5.657348368619728729e-02
-3.830144604584467122e-02
-3.176789309428645902e-02
-8.179007458926246255e-03
4.343757192335901546e-02
3.159505598096925411e-02
-5.785383032314498492e-02
-1.113624539230860799e-01
-8.973387876718463829e-02
-5.121307693513585391e-02
1.942667879468664913e-02
1.167044220771117358e-01
8.770145861656511443e-02
-8.266650293687456685e-02
-1.770806602165637123e-01
-1.033836166700753123e-01
3.669973730950277374e-02
1.425538283051111799e-01
1.451254083586770993e-01
5.498316836001938823e-02
-1.866710062810276322e-02
-1.522093254381018043e-02
1.927863672839617848e-02
1.749036817946626049e-02
-3.047753781806153417e-02
-7.590572236726722544e-02
-9.093516582591819331e-02
-8.747162777431903569e-02
-5.896088855057609462e-02
-3.514449208199670396e-03
4.386012430488742120e-02
8.087825930272392327e-02
1.497342362789983450e-01
2.385705277757257381e-01
2.716737446978176873e-01
1.937976981946545330e-01
2.008774298549649909e-02
-1.280921208073986517e-01
-1.137128368514395138e-01
1.083478919298183629e-02
7.215425107637651880e-02
2.252912202894077898e-02
-8.053988083967979217e-02
-2.057496539165947491e-01
-3.167477674265952170e-01
-3.427383171313627130e-01
-2.638228288720287917e-01
-1.495315978445801441e-01
-6.324554261243570119e-02
5.591840269689833665e-03
7.991187195270263444e-02
1.447491377834284887e-01
1.798925835757683445e-01
1.835478688580592654e-01
1.623993708421770377e-01
1.173163926600154228e-01
4.889329528024676658e-02
-5.293253345213197805e-03
-4.371534920938831975e-03
2.684956358046991856e-02
5.651858810684957934e-02
7.611467217965324494e-02
7.502353555492927151e-02
8.509760862784819524e-02
6.798006620308685855e-02
-8.967345930752351757e-02
-2.542928038498539767e-01
-2.041972329179661538e-01
-6.974009435843381288e-02
-4.749686649956829515e-02
-4.849608121367566388e-02
4.091869163231372578e-03
2.808983154723754261e-02
2.656101104068617907e-02
6.308660352269741811e-02
9.201016515443445620e-02
6.678685165962303105e-02
3.927317294704802536e-02
4.695332928413779860e-02
4.803432607011880184e-02
6.863698210432198250e-03
-2.949443088720708761e-02
-1.704447717852988070e-02
-1.417927261824794040e-02
-5.757549059731131846e-02
-6.937296800023770582e-02
-1.410694839960482602e-02
3.841816355519850346e-02
5.294545182602675149e-02
5.946619075508606522e-02
6.913038311358975230e-02
6.123560984245703109e-02
1.714844468469248207e-02
-4.867892567041325752e-02
-9.867713428623470229e-02
-1.193703271073012356e-01
-8.569331987905026704e-02
2.999341145840362169e-02
1.219300655008947187e-01
4.752749526160397059e-02
-1.152744378641977624e-01
-1.717332437368861708e-01
-1.020696226775517496e-01
-2.939955689684019616e-02
-7.741578140798999891e-03
-2.113484733651943559e-04
2.155260038331063138e-02
5.351358683369035474e-02
8.482748568243296539e-02
1.011103272501124584e-01
8.231901247747751282e-02
2.676038966996140134e-02
-2.320115930294459200e-02
-7.434416014785208762e-03
7.978553906594031131e-02
1.388595155085184385e-01
7.181290573134208044e-02
-3.214228308400397804e-02
-3.319178606936425135e-02
1.913964450690679164e-02
3.787989767568981231e-02
-3.719158951291408680e-03
-1.371505727787232232e-01
-2.369102074119163459e-01
-1.646536058086922605e-01
-6.583582430821972864e-02
-5.007791160961967691e-02
-6.846081626784081622e-03
6.375192759984044111e-02
7.146128392064543533e-02
5.694049233808437527e-02
6.606404331759720139e-02
5.442448043647979405e-02
6.881653676029665136e-03
-3.899142995419668800e-02
-5.170431483953355500e-02
-1.554759938698248301e-02
4.576064557303360925e-02
7.416567349710054269e-02
6.532034115573172317e-02
7.190336385372328443e-02
8.246825608505228833e-02
4.092964093591423824e-02
-2.244419810760641884e-02
-6.120937878702187307e-02
-9.848272253154838340e-02
-1.146924502720127331e-01
-6.387510649585388667e-02
4.089302629066832867e-03
2.769655800102572424e-02
2.082426387727184802e-02
1.668026116997738117e-02
3.778874576122868978e-02
6.760073013645027939e-02
5.049633860049115852e-02
5.262983940420433958e-03
3.255783987333987078e-02
1.395702985240085681e-01
1.988359370015099492e-01
1.338820161073625281e-01
1.675200104671975901e-02
-6.780952190174296956e-02
-1.335285369040115633e-01
-1.930235328025520780e-01
-1.907294109906498281e-01
-1.366271109892623070e-01
-1.156437252298591067e-01
-1.178063056421158189e-01
-8.043867016409506077e-02
-2.414679220609280974e-02
5.934360096044529603e-03
-3.639002588377883429e-04
-2.049911928418053988e-02
-3.806667300229549245e-03
4.114149527662970540e-02
5.366492451869604718e-02
5.482288293622877839e-02
9.877654113588350826e-02
1.455328771506533281e-01
1.294310101744167996e-01
6.992577607809537243e-02
3.034566362717764504e-02
9.818262864944023866e-03
-2.524390004259352907e-02
-3.060479526939913555e-02
1.425181274986189739e-02
1.244784523740721099e-02
-4.771134611390244473e-02
-5.696798234919975279e-02
-2.523230654216525315e-02
-3.599695971078480106e-02
-5.117784796934475577e-02
-1.908258822098785751e-02
5.859962987551431066e-03
2.526773205770474831e-03
3.770864097006713933e-02
1.048778000889468015e-01
1.094465345168955661e-01
4.311384412975594049e-02
-4.196871729565293183e-03
-2.072569817036627390e-03
-1.331439070630373832e-02
-6.366632460656908299e-02
-9.368346893475504311e-02
-7.639029667170502136e-02
-4.779964157556833987e-02
-1.143761223641368355e-02
4.305618806401984022e-02
8.098131282184189983e-02
7.520595836919855004e-02
4.835833900256698847e-02
2.701122982524833960e-02
-1.194811901735849669e-02
-8.772543373202065786e-02
-1.229933275442405827e-01
-4.628783315288867439e-02
6.289180189272076948e-02
8.967406319444500007e-02
2.170645294577323858e-02
-8.738411579009658370e-02
-1.463838970780504400e-01
-9.709681218033458516e-02
-1.055403027793883411e-02
2.217373751619203248e-02
1.875635242299987515e-02
2.719965273358313645e-02
3.593999934940587254e-02
2.182284883725398722e-02
1.415878910818782824e-02
4.355578717918937026e-02
7.365578556249532949e-02
6.992742345331509624e-02
6.231338040017538049e-02
5.488229506215790837e-02
4.459682671528741871e-04
-8.096335190933989789e-02
-1.092400875807018890e-01
-5.905354888531393065e-02
1.608506253571231198e-02
3.421119439819826635e-02
-7.854501860515943068e-03
-2.253072558436000281e-02
6.022443797978327233e-03
1.279284889837815214e-02
-4.317226150843468321e-03
-1.562360686369450649e-02
-2.288841696602073733e-02
5.018187028329260287e-03
7.757240910986731852e-02
9.959865358217394327e-02
3.565462775895093805e-02
-1.078946968454755351e-02
-3.511836943901638225e-03
-9.926790854402661041e-03
-8.952740910464423302e-03
5.072997700712855024e-02
3.675663418801999177e-02
-1.425063734501501034e-01
-2.352747867695586248e-01
-7.339546657430018328e-02
7.653661783889427472e-02
3.706354556961853619e-02
-2.279259084782322975e-02
-3.356174104453589404e-03
4.503603627609847893e-02
9.943042633329969571e-02
1.128598001688215086e-01
6.047281713563679162e-02
2.539902187228124802e-02
3.348692959086517484e-02
1.193297215622262167e-02
-4.381058541412657242e-02
-1.014588695367168864e-01
-1.815293022877297602e-01
-2.436702020588443207e-01
-1.726276134677707519e-01
-8.653205111342859163e-03
4.390245099239711846e-02
-1.570854060345081710e-02
2.424543468816975703e-02
1.210902682654360629e-01
8.447340766250327482e-02
4.772465700253131216e-02
1.747911168876344901e-01
2.955157948106931776e-01
2.760008035154110084e-01
2.068863548409833053e-01
1.389051064244692379e-01
6.253212495481798305e-02
-2.601106421189860324e-02
-1.472335073282153295e-01
-2.247513493072607615e-01
-1.827857399368570668e-01
-1.338727359692574170e-01
-1.568785565370343082e-01
-1.748640296598139854e-01
-1.490678073751616484e-01
-1.060183870797375277e-01
-7.728027916643188944e-02
-7.928770897442780075e-02
-7.398817080033498472e-02
-2.981834905627501336e-02
2.015372242797046701e-02
4.223062647343647086e-02
4.907614401567466506e-02
7.610348225641548614e-02
1.272224379818464035e-01
1.511945635692845957e-01
1.165432689220046170e-01
5.928041516034369268e-02
2.081252781199911112e-02
2.160381123841525336e-02
5.963893917233011738e-02
8.906216295726819554e-02
8.129045836336015740e-02
5.388424139537278251e-02
7.182328028129927183e-03
-3.175213389949901877e-02
-6.375397561915484290e-03
-9.292017974903411109e-03
-1.469060630658911848e-01
-2.294073017336845655e-01
-9.954101340758345073e-02
4.091902147159603986e-02
6.353377538185060736e-02
8.521839883181825392e-02
1.158373720337571855e-01
8.116223750261300496e-02
1.812523522225665401e-02
-1.282643834226759871e-02
-2.428727798884443984e-02
-6.619332692725331257e-02
-1.393889008478979841e-01
-1.522618689196028052e-01
-4.824488665093891460e-02
4.002690858152329473e-02
-3.521316505285033982e-02
-1.253549434278519725e-01
-2.136030777231855832e-02
1.143930228031130869e-01
8.007434342704485009e-02
1.321456822123163316e-02
1.771448393209773889e-02
4.247290007448623755e-02
1.096404700628677287e-01
1.371101365706781927e-01
9.597622190015427102e-03
-1.055622325758074076e-01
-6.384565589674415231e-02
6.273676543066972200e-03
2.108328653798602348e-02
2.747398452470404054e-02
1.907435214440114657e-02
-7.701679085356468758e-03
-1.220270805828234731e-03
2.457039784531840979e-02
2.063409359432612569e-02
1.929682988482122122e-02
4.437878140710805469e-02
2.761960104242909206e-02
-5.083691318662382497e-02
-1.014829351920178424e-01
-8.539846306700207834e-02
-5.887445602186438393e-02
-4.352578807195927463e-02
-1.745342876039015709e-02
5.925968102677882897e-03
9.869693516941415584e-03
5.754577896388148039e-03
-6.960183318711449588e-03
-1.355206381815604599e-02
2.473322074594494838e-02
7.386726405723909039e-02
6.213884527428714666e-02
1.943446132636344678e-02
1.792234835105075211e-02
4.023655594129026125e-02
2.555363297013560006e-02
-3.082939398655043864e-02
-7.507467574239334862e-02
-6.661683597365561371e-02
-3.175234313950602710e-02
-1.458764637212881139e-02
-1.486325998660457774e-02
-8.616005668686015778e-03
2.852652157849312753e-02
8.787043568202695942e-02
1.015580008519863103e-01
6.118588917015137241e-02
4.182048809813279644e-02
2.010989329577389517e-02
-3.671101391322942331e-02
-2.571285114431976285e-02
4.540328319686236236e-02
5.167731388611910420e-02
-1.192422790631043894e-02
-1.393244354225505466e-01
-2.824239589024250541e-01
-2.410189780819347038e-01
-2.159310420218503793e-02
9.173174232987374443e-02
2.869240374144130939e-02
-2.279565765506941580e-02
-8.762255145954037094e-03
5.227603917144966680e-03
2.319822550168620240e-02
5.246726750157035962e-02
7.829929723549844400e-02
1.024066442482310518e-01
1.285089523751196394e-01
1.694582606643957046e-01
1.918018751176638892e-01
1.342910552795442969e-01
7.040251508755480947e-02
1.071502852255593469e-01
1.176859408849983690e-01
-4.808809557358846576e-02
-2.064144199835289961e-01
-1.657196418850416519e-01
-8.697070995326428022e-02
-1.142136571730176797e-01
-1.413285227981908587e-01
-8.938984194200684519e-02
-1.872399645538486840e-02
-4.540850986138461609e-02
-1.852293206128448888e-01
-2.413843074505138409e-01
-1.080065504992531455e-01
2.473161158335259943e-02
3.215524944657213030e-02
2.433585664148367467e-02
7.295836729222712758e-02
1.204254269185223991e-01
1.211207558155727587e-01
8.927010128027690339e-02
5.734583527208197973e-02
4.062380856969365767e-02
2.553657874444736908e-02
1.203754426421876737e-02
1.860380963151329892e-02
2.471734368686194505e-02
1.884619723424357102e-02
4.195144540922357557e-02
8.570570339651044367e-02
8.766896631898903058e-02
4.154436255158766578e-02
-1.178139568847018370e-02
-4.392890554248717050e-02
-7.480123303229334331e-02
-1.586342619636023077e-01
-2.176087744550355696e-01
-9.296613680478073294e-02
1.100247373896289099e-01
1.576642907358997703e-01
8.586019900697731966e-02
3.285280721847851776e-02
-3.564634635569133465e-03
-3.743104303672938060e-02
-3.699356381243323194e-02
-1.640165096692870576e-03
3.547690852997380934e-02
4.906347807019334484e-02
3.983996736754458895e-02
1.561692516832807048e-02
-2.047803163925844203e-02
-4.801093184221201515e-02
-3.660897950215525470e-02
2.774506964058193886e-03
2.337396891943871111e-02
2.314817017463116286e-03
-3.894785435229922849e-02
-5.187927761397916754e-02
-2.507771913055998128e-02
-8.777719398139012877e-03
3.387906779619802300e-05
4.132897218317967136e-02
4.812677329652230440e-02
-1.588973957346831445e-02
-4.646004097737433530e-02
-3.581580122701198687e-02
-6.692774099370088492e-02
-7.713612719747160729e-02
1.886158035290500315e-03
7.285806960354979100e-02
5.696236390494303914e-02
1.417398832083409041e-02
1.020202883454796386e-02
8.905347386482102487e-03
-3.739647627632046445e-02
-7.085174165042139316e-02
-2.108625398232714943e-02
5.736322226986858425e-02
6.478631302868480268e-02
9.950490951488860994e-03
-2.167935456740267830e-02
-7.488616430869421761e-03
1.182379306727484800e-02
1.508246182615131936e-02
-2.924395631830607571e-03
-3.533673093662656473e-02
-3.957175048941403289e-02
1.609240013792330795e-02
1.029161463965311690e-01
1.497045854655518204e-01
1.065448915354125919e-01
1.750802811668412257e-02
-1.869861704321565746e-02
9.751485441893695955e-03
8.422765736333581374e-03
-7.264479799168187257e-02
-1.384582573140526740e-01
-8.357344816647435670e-02
2.649862110097871842e-02
6.517986673189260505e-02
3.619004439957842351e-02
-9.110324508604996166e-03
-6.590052854782828262e-02
-9.566530384875902848e-02
-6.498471121548446416e-02
-3.691135756394949008e-02
-5.715607027225575593e-02
-7.560884695561639890e-02
-4.015219886294918439e-02
5.468277032023736300e-02
1.658692125590817412e-01
2.082559206976834498e-01
1.421739240887278100e-01
2.737170954853402130e-02
-5.432850325829038235e-02
-8.414170077327051689e-02
-1.030127284180017144e-01
-1.407752824160283800e-01
-1.686604454578733703e-01
-1.552313038381182564e-01
-1.136834563851805702e-01
-6.239822702916215935e-02
-1.241049554510715268e-02
4.471428544598074484e-02
1.501155513607840830e-01
2.756237403571823452e-01
3.270410216253372138e-01
3.145346253225038136e-01
2.799523277169954638e-01
1.618792153845402815e-01
-9.237819371456224699e-03
-8.482459540962683509e-02
-7.802565329731016297e-02
-1.059970063399572893e-01
-1.593264048712126901e-01
-1.842381793093879339e-01
-1.896057447895199699e-01
-1.897164627852938878e-01
-1.841791023835614438e-01
-1.656377720431219946e-01
-1.181479270128110437e-01
-5.725816869240413221e-02
-2.491885940566551660e-02
-1.788264244938767011e-02
1.244888347216797225e-02
7.680191695212013059e-02
1.340855730938453338e-01
1.760835427112742435e-01
2.169748824933575848e-01
2.086346556746148662e-01
1.319270161731067037e-01
7.306956648633783358e-02
5.859870810754672088e-02
2.102218289119193312e-03
-1.192773090140607228e-01
-2.042317217173656163e-01
-1.611857462727111501e-01
-3.923698351831499120e-02
3.276762271397343912e-02
1.743003898801807547e-02
-3.722042138566418468e-02
-9.128201521049311706e-02
-1.006519972612236608e-01
-4.710698324852011926e-02
1.737678859914923782e-02
5.832598048250459133e-02
9.702370265309323560e-02
1.275915525573812770e-01
1.138665717572363845e-01
6.632877319110043468e-02
3.012836407477305009e-02
1.063654449179895177e-02
-1.313236165833758795e-02
-2.944506821069283603e-02
-1.810028909388884319e-02
-4.540481108400004975e-03
-2.827540530049401160e-02
-6.766578921039337335e-02
-7.655880261751923932e-02
-6.215007285471977477e-02
-3.139371275292972274e-02
